##TITLE=1D-1H-"Auto"-20--10-4.896-25-21-4.74--11--15-4.74-1-2-8-6.4-15-"Off"-"Off"
##JCAMP-DX=5.01 $$ Magritek Spinsolve SPA3402 2.1.3.5116
##DATA TYPE=NMR FID
##DATA CLASS=NTUPLES
##ORIGIN=SPA3402 at Magritek
##OWNER=Copyright (C) 2024 by Magritek
##LONGDATE=2024/07/25 10:41:49.472
##.OBSERVE FREQUENCY=80.4876347538084
##.OBSERVE NUCLEUS=^1H
##.DELAY=( 24,  15000)
##.ACQUISITION MODE=SIMULTANEOUS
##.FIELD= 2.0
##.AVERAGES= 8
##.DIGITISER RES=16
##.SHIFT REFERENCE=(INTERNAL, Water, 16385, 4.74)
##$REFERENCE_POINT= 868.416    $$ Referencing label
$$      Distance of the zero axis position (in Hz) from the last data
$$      point (right edge); positive values -> right edge is below 0 Hz
##SPECTROMETER/DATA SYSTEM=Magritek
##SAMPLE DESCRIPTION=solvent=Water
$$ Bruker specific parameters
$$ --------------------------
##$AUNMP=   <proc_1d_nosref>
##$INSTRUM= <Magritek>
##$SI=      16384
##$TD=      16384
##$TDeff=   16384
##$SW=      31.060670
##$BF1=     80.4876347538084
##$SF=      80.4872531693154
##$LB=      0
##$PHC0=    4.5
##$PHC1=    0.0
##$REVERSE= yes
$$ End of Bruker specific parameters
$$ ---------------------------------
##NTUPLES=NMR FID
##VAR_NAME=        TIME,            FID/REAL,            FID/IMAG, PAGE NUMBER
##SYMBOL=             X,                   R,                   I,           N
##VAR_TYPE= INDEPENDENT,           DEPENDENT,           DEPENDENT,        PAGE
##VAR_FORM=        AFFN,                AFFN,                AFFN,        AFFN
##VAR_DIM=        16384,               16384,               16384,           2
##UNITS=        SECONDS,     ARBITRARY UNITS,     ARBITRARY UNITS,            
##FIRST=              0,    2041.09011672266,    10.9982301607402,           1
##LAST=    6.553199e+00,  -0.191854061805924,   0.766936776382883,           2
##MIN=                0,   -3693.67060980254,   -3717.51073378115,           1
##MAX=     6.553199e+00,    3655.11564137003,    3633.72144046126,           2
##FACTOR=             1,                   1,                   1,           1
##PAGE=N=1
##DATA TABLE=(X++(R..R)), XYDATA
0.000000  2041.090117  3655.115641  2699.954204  1341.372885   -93.257136 -1513.143623
0.002400 -2599.023417 -3238.532813 -3335.619979 -2886.377098 -1976.744461  -780.731378
0.004800   489.389022  1628.220235  2466.186712  2888.575472  2845.242411  2345.330565
0.007200  1452.862716   309.870055  -887.951967 -1929.857447 -2626.518039 -2850.327325
0.009600 -2565.911308 -1810.691121  -690.993782   625.460490  1918.523744  2952.365798
0.012000  3532.254590  3541.540420  2976.350390  1935.864140   589.923069  -855.230173
0.014400 -2178.871115 -3179.847514 -3693.670610 -3632.217607 -3007.886588 -1935.541598
0.016800  -604.473511   776.527104  1997.848467  2886.260253  3317.896480  3223.917105
0.019200  2618.811945  1603.020594   360.506739  -892.908892 -1944.282681 -2634.150173
0.021600 -2863.600256 -2601.680187 -1888.014780  -836.712613   374.805043  1525.076684
0.024000  2399.812378  2847.266559  2791.689798  2244.033381  1288.397045    71.735364
0.026400 -1227.795277 -2393.138126 -3217.564507 -3547.686388 -3316.412645 -2563.848687
0.028800 -1411.116770   -42.232742  1336.672718  2516.963141  3316.638430  3593.186425
0.031200  3294.474144  2476.633722  1285.298769   -69.201479 -1373.634166 -2438.766131
0.033600 -3114.466306 -3305.306140 -2985.048854 -2209.414887 -1110.276995   113.727915
0.036000  1251.922579  2117.310542  2586.163841  2591.834390  2131.583436  1269.586142
0.038400   142.963722 -1052.106582 -2097.601096 -2796.606307 -3021.021561 -2733.370355
0.040800 -1981.359048  -888.390850   380.753780  1626.238988  2632.623240  3220.206051
0.043200  3279.749932  2799.529134  1863.901511   633.112185  -704.867516 -1954.957660
0.045600 -2931.469611 -3484.687113 -3521.195842 -3027.297692 -2087.606236  -867.289238
0.048000   434.058325  1617.160140  2508.033768  2981.075533  2963.492767  2455.842195
0.050400  1541.832896   385.237255  -804.758985 -1820.972125 -2490.234744 -2714.800721
0.052800 -2470.146318 -1799.693480  -803.284945   352.777642  1458.822928  2316.868080
0.055200  2772.471764  2743.171578  2244.278812  1355.309282   217.140199  -997.448019
0.057600 -2103.341801 -2905.938492 -3263.364158 -3102.659626 -2448.032268 -1411.054708
0.060000  -153.978863  1131.243109  2256.441615  3052.346606  3389.185057  3205.197806
0.062400  2530.006707  1479.867328   239.949976  -982.283897 -1998.022155 -2660.666028
0.064800 -2876.748555 -2620.155432 -1929.798595  -922.257750   217.530762  1290.249238
0.067200  2110.432701  2550.417779  2551.873792  2123.382315  1334.334209   305.985912
0.069600  -795.002353 -1766.616177 -2431.498935 -2667.743358 -2432.923732 -1767.899481
0.072000  -781.653916   378.097207  1533.864216  2497.960752  3104.271348  3235.753268
0.074400  2863.537354  2049.409203   930.629983  -307.640287 -1479.303395 -2418.091235
0.076800 -2976.173070 -3066.265755 -2667.535986 -1847.078350  -751.008226   430.253223
0.079200  1506.957304  2319.363964  2753.608483  2754.036327  2320.398531  1523.711202
0.081600   498.170617  -573.104002 -1501.364623 -2128.206523 -2359.054422 -2166.737142
0.084000 -1582.594378  -700.477861   340.078677  1363.765337  2183.911483  2643.382893
0.086400  2657.672313  2222.625037  1410.697516   360.395812  -768.759341 -1807.969837
0.088800 -2580.491689 -2952.040424 -2852.185650 -2293.328306 -1376.913659  -254.282598
0.091200   898.996844  1907.761176  2629.867321  2959.756499  2840.019261  2283.805783
0.093600  1385.195289   299.033938  -791.827932 -1714.414256 -2334.519968 -2565.845345
0.096000 -2379.905894 -1802.439507  -930.572819    81.264501  1056.026781  1815.286394
0.098400  2228.290449  2239.839876  1855.635803  1139.563454   206.168211  -791.389085
0.100800 -1685.894680 -2312.252170 -2553.518800 -2361.494575 -1774.628059  -891.833340
0.103200   145.023935  1183.810613  2058.715251  2622.871633  2775.646738  2481.946678
0.105600  1786.805956   814.760228  -280.947359 -1324.725098 -2164.144906 -2683.258456
0.108000 -2799.755965 -2493.989934 -1813.438971  -876.922820   155.741631  1113.835341
0.110400  1844.394134  2248.582711  2272.382791  1918.438521  1239.922642   350.168882
0.112800  -602.294161 -1441.135373 -2015.417493 -2233.419362 -2063.699012 -1540.813386
0.115200  -750.367609   179.476834  1102.735689  1844.865775  2272.132574  2300.246514
0.117600  1922.278657  1211.514816   282.097287  -713.393184 -1622.857903 -2303.832750
0.120000 -2646.726894 -2586.562938 -2130.408900 -1354.397062  -388.765343   610.563148
0.122400  1499.542791  2150.560918  2472.215975  2413.864584  1981.522444  1237.256459
0.124800   306.179985  -647.907584 -1469.353482 -2029.319043 -2247.302014 -2094.017707
0.127200 -1596.016156  -831.774938    63.212396   930.068397  1609.442932  1978.365863
0.129600  1982.467723  1631.338379   992.405404   174.661898  -690.675114 -1461.997663
0.132000 -2002.672602 -2212.042019 -2049.458064 -1543.491692  -783.657583   110.871432
0.134400  1003.195919  1760.127954  2268.371427  2436.859928  2230.057249  1673.906040
0.136800   858.934068   -78.547941  -989.648975 -1734.316713 -2207.768620 -2340.183825
0.139200 -2106.984035 -1541.637496  -737.623938   163.974930  1007.847938  1655.102979
0.141600  2007.965924  2023.276404  1710.019778  1116.640854   345.552522  -470.278074
0.144000 -1185.590086 -1669.759793 -1842.759303 -1680.285899 -1218.320589  -537.126007
0.146400   254.099748  1028.296334  1655.681117  2022.910383  2064.445038  1763.517292
0.148800  1168.195177   384.239697  -462.796828 -1246.411681 -1850.101528 -2176.985727
0.151200 -2167.049720 -1811.656298 -1168.181272  -342.248570   530.332731  1311.884074
0.153600  1885.987525  2171.945623  2129.158365  1761.854950  1126.088546   328.976043
0.156000  -489.995733 -1189.900111 -1657.206298 -1823.401222 -1679.166858 -1252.334492
0.158400  -613.136052   128.724420   846.237303  1408.142302  1712.827967  1712.413647
0.160800  1412.247845   872.218891   182.996885  -544.411825 -1198.645909 -1670.834806
0.163200 -1868.890627 -1753.840054 -1344.586944  -701.113638    63.143278   831.274009
0.165600  1488.562895  1934.568267  2094.862600  1933.446311  1469.165368   775.029028
0.168000   -30.093461  -810.848264 -1449.346000 -1850.398254 -1957.122316 -1762.260796
0.170400 -1295.244875  -628.728088   121.077327   820.823873  1354.351253  1639.403720
0.172800  1642.107867  1370.141715   875.158471   239.513688  -433.382462 -1027.789025
0.175200 -1435.352392 -1580.213302 -1444.737745 -1055.364024  -481.171986   182.427433
0.177600   831.824796  1362.488009  1682.805224  1726.007757  1478.517559   979.550347
0.180000   312.909187  -412.373367 -1082.603115 -1596.949164 -1877.452148 -1877.382302
0.182400 -1589.307840 -1052.674847  -358.887338   375.652514  1031.834345  1507.744560
0.184800  1739.958514  1700.220626  1395.969216   875.087154   221.930575  -449.296301
0.187200 -1021.164588 -1399.825014 -1533.616061 -1406.044315 -1047.920293  -524.497284
0.189600    82.382294   669.657058  1134.493376  1391.384270  1389.407172  1139.304252
0.192000   684.873470   102.832218  -511.431782 -1058.482278 -1452.139362 -1620.618398
0.194400 -1526.045270 -1180.552730  -637.783086    12.289465   660.405837  1208.913875
0.196800  1578.555961  1711.651108  1581.572814  1203.848354   637.114693   -25.857027
0.199200  -671.342697 -1197.146673 -1524.549345 -1610.844128 -1449.537213 -1066.884138
0.201600  -527.205714    83.171245   658.644848  1095.747528  1325.673398  1321.130682
0.204000  1088.720665   678.098591   156.057836  -394.191814  -874.663539 -1201.402174
0.206400 -1318.209404 -1195.492882  -862.122567  -377.492553   175.566770   710.595824
0.208800  1148.477407  1410.213215  1444.698635  1243.663648   834.941915   282.116015
0.211200  -321.018094  -878.990407 -1306.145382 -1538.126132 -1540.077967 -1308.085139
