##TITLE=1D-1H-"Auto"-20--10-4.914-25-21-4.74--11--15-4.74-1-2-8-6.4-15-"Off"-"Off"
##JCAMP-DX=5.01 $$ Magritek Spinsolve SPA3402 2.1.3.5116
##DATA TYPE=NMR FID
##DATA CLASS=NTUPLES
##ORIGIN=SPA3402 at Magritek
##OWNER=Copyright (C) 2024 by Magritek
##LONGDATE=2024/07/25 10:46:05.152
##.OBSERVE FREQUENCY=80.4877034388483
##.OBSERVE NUCLEUS=^1H
##.DELAY=( 24,  15000)
##.ACQUISITION MODE=SIMULTANEOUS
##.FIELD= 2.0
##.AVERAGES= 8
##.DIGITISER RES=16
##.SHIFT REFERENCE=(INTERNAL, Water, 16385, 4.74)
##$REFERENCE_POINT= 868.445    $$ Referencing label
$$      Distance of the zero axis position (in Hz) from the last data
$$      point (right edge); positive values -> right edge is below 0 Hz
##SPECTROMETER/DATA SYSTEM=Magritek
##SAMPLE DESCRIPTION=solvent=Water
$$ Bruker specific parameters
$$ --------------------------
##$AUNMP=   <proc_1d_nosref>
##$INSTRUM= <Magritek>
##$SI=      16384
##$TD=      16384
##$TDeff=   16384
##$SW=      31.060650
##$BF1=     80.4877034388483
##$SF=      80.4873218834922
##$LB=      0
##$PHC0=    4.5
##$PHC1=    0.0
##$REVERSE= yes
$$ End of Bruker specific parameters
$$ ---------------------------------
##NTUPLES=NMR FID
##VAR_NAME=        TIME,            FID/REAL,            FID/IMAG, PAGE NUMBER
##SYMBOL=             X,                   R,                   I,           N
##VAR_TYPE= INDEPENDENT,           DEPENDENT,           DEPENDENT,        PAGE
##VAR_FORM=        AFFN,                AFFN,                AFFN,        AFFN
##VAR_DIM=        16384,               16384,               16384,           2
##UNITS=        SECONDS,     ARBITRARY UNITS,     ARBITRARY UNITS,            
##FIRST=              0,    2043.49693727831,    14.2181240267406,           1
##LAST=    6.553199e+00,   0.555945255480448,    0.70952439909335,           2
##MIN=                0,   -3698.51807003044,   -3735.87243944073,           1
##MAX=     6.553199e+00,    3664.34160526125,    3634.77735163085,           2
##FACTOR=             1,                   1,                   1,           1
##PAGE=N=1
##DATA TABLE=(X++(R..R)), XYDATA
0.000000  2043.496937  3664.341605  2720.374341  1375.884394   -48.517667 -1460.757351
0.002400 -2552.590741 -3209.234938 -3335.478386 -2920.614657 -2046.460617  -878.638074
0.004800   379.073321  1521.908839  2386.044477  2856.526118  2874.647043  2434.316567
0.007200  1590.439872   471.904488  -729.302269 -1805.222831 -2560.439761 -2866.817007
0.009600 -2673.131577 -1996.307821  -932.012435   362.828412  1679.971988  2779.509654
0.012000  3456.285363  3586.572589  3147.073593  2217.074781   943.602742  -478.496034
0.014400 -1844.792202 -2940.824075 -3594.956210 -3698.518070 -3240.294885 -2309.543958
0.016800 -1066.970430   291.123804  1565.774124  2575.089263  3175.316941  3269.284701
0.019200  2839.987950  1963.219051   796.771591  -451.408547 -1578.565130 -2412.315852
0.021600 -2829.126042 -2765.531624 -2226.797640 -1296.048995  -130.231475  1057.307478
0.024000  2053.700319  2688.627054  2857.899629  2539.029110  1771.315455   661.334953
0.026400  -622.807513 -1877.347157 -2885.769788 -3464.194325 -3513.275947 -3030.514162
0.028800 -2093.929906  -842.571085   537.021988  1840.951525  2861.757072  3430.048262
0.031200  3455.061309  2939.260953  1983.991523   759.916850  -545.388133 -1742.108231
0.033600 -2659.022550 -3159.790543 -3167.016239 -2683.144283 -1795.413435  -667.521209
0.036000   506.364824  1540.487592  2275.294839  2603.063094  2461.698287  1862.704052
0.038400   898.904672  -262.402818 -1408.381236 -2333.804177 -2875.448092 -2948.251699
0.040800 -2542.158522 -1710.492745  -575.330381   689.359474  1872.113719  2767.021077
0.043200  3225.174557  3178.618252  2644.265026  1708.582889   505.881765  -791.192370
0.045600 -1988.888937 -2902.191989 -3383.445184 -3348.712774 -2817.033320 -1886.882909
0.048000  -710.073693   531.786967  1656.135816  2493.748249  2908.598288  2835.395407
0.050400  2289.187505  1378.483034   274.763221  -827.901968 -1755.280089 -2362.726789
0.052800 -2559.418713 -2305.281679 -1634.989852  -662.927864   446.014037  1489.669040
0.055200  2290.231729  2723.959297  2719.434813  2276.027761  1448.920337   355.363016
0.057600  -837.810783 -1932.985889 -2737.876239 -3117.870348 -3015.183668 -2452.825565
0.060000 -1515.793080  -339.225260   904.802467  2024.966643  2838.887279  3211.781609
0.062400  3092.622549  2514.971178  1595.190476   482.157131  -654.285819 -1642.170621
0.064800 -2337.457192 -2624.490981 -2459.445403 -1881.085747 -1002.473282    18.946474
0.067200  1013.131220  1825.130781  2332.391510  2450.112639  2148.370770  1463.926771
0.069600   513.664631  -532.858479 -1491.608574 -2202.767134 -2548.613939 -2473.320301
0.072000 -1981.016876 -1131.733390   -52.331658  1079.696970  2074.302397  2763.922821
0.074400  3033.771569  2851.527066  2258.622139  1343.301465   234.306645  -899.146046
0.076800 -1884.524539 -2559.475559 -2821.945597 -2639.371223 -2064.544346 -1201.506958
0.079200  -182.767884   835.551938  1703.383606  2283.955957  2480.978273  2262.194045
0.081600  1673.096596   827.099801  -127.576797 -1032.254774 -1746.002926 -2153.870471
0.084000 -2184.956231 -1818.547222 -1111.677176  -185.560660   792.222784  1644.465293
0.086400  2234.838002  2468.840507  2309.883799  1771.204653   927.986125   -89.777397
0.088800 -1116.752886 -1981.182860 -2543.241075 -2719.318058 -2497.684704 -1914.288540
0.091200 -1054.983478   -41.010632   975.730570  1831.500323  2390.645808  2566.528800
0.093600  2340.868689  1768.707475   948.562853     6.248136  -913.902081 -1670.448010
0.096000 -2136.510919 -2235.135939 -1955.001823 -1355.500769  -552.796469   314.222523
0.098400  1103.513331  1695.840980  1990.357858  1928.854561  1512.243516   808.226910
0.100800   -58.896201  -936.196543 -1674.568537 -2154.567653 -2301.864692 -2090.712296
0.103200 -1544.793936  -739.969653   201.314498  1119.038551  1858.836745  2308.569825
0.105600  2403.284789  2139.945514  1563.268578   754.427325  -168.140547 -1063.284693
0.108000 -1788.596008 -2227.969229 -2317.457030 -2059.668378 -1506.882526  -748.247187
0.110400    99.036228   907.547361  1544.763805  1902.481712  1918.623494  1599.822977
0.112800  1006.955511   252.317805  -529.536964 -1216.644074 -1694.745986 -1883.490194
0.115200 -1739.745274 -1282.098837  -593.244696   204.465821   973.233581  1585.649234
0.117600  1948.987842  2011.440063  1755.817801  1217.680558   473.844290  -360.945898
0.120000 -1149.986022 -1769.283509 -2118.627778 -2159.380893 -1885.274400 -1335.030515
0.122400  -587.171545   249.464688  1045.033104  1663.394534  2004.243188  2021.988701
0.124800  1725.689145  1176.987045   463.301510  -298.954761  -987.280956 -1489.113921
0.127200 -1720.570747 -1645.533910 -1282.541500  -711.767156   -39.274968   629.098248
0.129600  1188.262296  1548.186087  1645.400969  1458.843491  1012.113379   382.389242
0.132000  -321.191352  -983.361092 -1495.589814 -1779.496650 -1790.691398 -1514.552779
0.134400  -989.444174  -291.650942   466.816091  1158.009089  1670.829155  1929.127330
0.136800  1899.345736  1591.731126  1053.468572   363.815015  -371.451102 -1035.071932
0.139200 -1519.257701 -1746.431551 -1693.436616 -1382.934168  -870.439128  -239.839723
0.141600   411.944849   980.811651  1369.970453  1512.525779  1389.059039  1030.455861
0.144000   501.077007   -99.382413  -677.867789 -1140.699927 -1412.784826 -1440.334075
0.146400 -1212.347928  -765.154723  -176.457669   448.854680  1010.453542  1419.778535
0.148800  1615.110885  1563.582143  1265.264586   759.248577   126.878717  -530.745438
0.151200 -1106.892167 -1508.458317 -1683.607737 -1607.476969 -1297.855824  -797.007428
0.153600  -177.409247   457.453434  1007.782668  1381.175498  1524.788898  1424.103249
0.156000  1109.734815   635.757694    75.070374  -479.762697  -939.959620 -1225.209736
0.158400 -1287.101080 -1124.063684  -769.080643  -287.162196   237.356579   720.493466
0.160800  1087.456589  1271.808332  1241.752184   992.305472   563.850101    31.229646
0.163200  -510.514800  -975.886289 -1296.152607 -1418.527899 -1319.614404 -1011.360190
0.165600  -537.281888    28.103219   587.973299  1056.150823  1361.678837  1462.922217
0.168000  1350.757407  1043.298356   585.931674    46.587738  -487.125626  -927.912548
0.170400 -1205.976767 -1282.980074 -1153.710390  -850.181731  -419.667905    67.858736
0.172800   532.261427   898.957605  1100.175047  1103.711996   912.580008   567.025824
0.175200   133.553602  -318.968782  -718.169381  -995.028200 -1104.495016 -1022.833564
0.177600  -759.996103  -360.235818   106.541679   562.007396   935.084519  1169.321394
0.180000  1233.387738  1110.901844   813.512755   384.370853  -106.264925  -576.903353
0.182400  -955.845170 -1184.481440 -1234.520923 -1103.425769  -810.390713  -394.817331
0.184800    73.938016   522.141505   869.562365  1065.213901  1085.933735   933.553828
0.187200   641.236447   254.173469  -162.785638  -540.950991  -815.336783  -938.197266
0.189600  -895.151317  -693.274104  -374.220172     0.752164   374.492470   690.946659
0.192000   895.398612   948.376935   838.223779   580.555391   220.533987  -182.280819
0.194400  -562.282909  -861.636497 -1036.209718 -1057.978297  -917.278994  -632.087001
0.196800  -249.854575   170.846885   560.357217   858.127650  1021.588898  1028.238582
0.199200   880.704548   602.072191   233.398716  -163.534156  -524.100635  -790.696503
0.201600  -920.406080  -898.972158  -740.938331  -470.951372  -137.901245   207.456187
0.204000   505.645288   703.405583   772.710879   700.616321   502.507790   216.749846
0.206400  -106.243725  -417.338728  -666.531411  -812.440690  -826.379411  -700.513640
0.208800  -457.504389  -138.121086   204.098283   518.053616   753.512233   876.350483
0.211200   863.653333   713.511831   451.079415   116.137775  -237.804767  -553.235603
