##TITLE=1D-1H-"Auto"-20--10-4.873-25-21-4.74--11--15-4.74-1-2-8-6.4-15-"Off"-"Off"
##JCAMP-DX=5.01 $$ Magritek Spinsolve SPA3402 2.1.3.5116
##DATA TYPE=NMR FID
##DATA CLASS=NTUPLES
##ORIGIN=SPA3402 at Magritek
##OWNER=Copyright (C) 2024 by Magritek
##LONGDATE=2024/07/25 10:37:33.711
##.OBSERVE FREQUENCY=80.4875791072845
##.OBSERVE NUCLEUS=^1H
##.DELAY=( 24,  15000)
##.ACQUISITION MODE=SIMULTANEOUS
##.FIELD= 2.0
##.AVERAGES= 8
##.DIGITISER RES=16
##.SHIFT REFERENCE=(INTERNAL, Water, 16385, 4.74)
##$REFERENCE_POINT= 868.511    $$ Referencing label
$$      Distance of the zero axis position (in Hz) from the last data
$$      point (right edge); positive values -> right edge is below 0 Hz
##SPECTROMETER/DATA SYSTEM=Magritek
##SAMPLE DESCRIPTION=solvent=Water
$$ Bruker specific parameters
$$ --------------------------
##$AUNMP=   <proc_1d_nosref>
##$INSTRUM= <Magritek>
##$SI=      16384
##$TD=      16384
##$TDeff=   16384
##$SW=      31.060690
##$BF1=     80.4875791072845
##$SF=      80.4871976179812
##$LB=      0
##$PHC0=    4.5
##$PHC1=    0.0
##$REVERSE= yes
$$ End of Bruker specific parameters
$$ ---------------------------------
##NTUPLES=NMR FID
##VAR_NAME=        TIME,            FID/REAL,            FID/IMAG, PAGE NUMBER
##SYMBOL=             X,                   R,                   I,           N
##VAR_TYPE= INDEPENDENT,           DEPENDENT,           DEPENDENT,        PAGE
##VAR_FORM=        AFFN,                AFFN,                AFFN,        AFFN
##VAR_DIM=        16384,               16384,               16384,           2
##UNITS=        SECONDS,     ARBITRARY UNITS,     ARBITRARY UNITS,            
##FIRST=              0,     2034.2012110462,                   0,           1
##LAST=    6.553199e+00,  -0.613597368190388,   0.172476867289007,           2
##MIN=                0,   -3740.76434198228,   -3775.11215036925,           1
##MAX=     6.553199e+00,    3651.19081561978,    3635.50926487547,           2
##FACTOR=             1,                   1,                   1,           1
##PAGE=N=1
##DATA TABLE=(X++(R..R)), XYDATA
0.000000  2034.201211  3651.190816  2689.262031  1317.807073  -131.166838 -1559.904915
0.002400 -2645.791717 -3268.855981 -3334.245876 -2845.705975 -1898.360673  -666.890529
0.004800   621.294017  1751.699673  2554.340872  2921.801060  2810.207030  2240.389352
0.007200  1293.158259   119.075494 -1072.320835 -2069.711659 -2686.101025 -2811.734973
0.009600 -2420.444662 -1574.070247  -395.263783   930.529330  2182.713326  3128.990105
0.012000  3582.846704  3448.823708  2738.081956  1576.643392   161.602941 -1285.124545
0.014400 -2542.857425 -3408.512011 -3740.764342 -3478.731522 -2665.778564 -1445.796608
0.016800   -33.833493  1339.580934  2467.409861  3187.691392  3402.592108  3081.009522
0.019200  2276.001089  1121.434655  -176.814338 -1393.046377 -2316.087842 -2806.775626
0.021600 -2796.792849 -2301.215658 -1401.199958  -245.143762   970.325238  2022.610454
0.024000  2711.051965  2904.762220  2571.480652  1769.461519   631.523462  -658.647564
0.026400 -1900.859745 -2883.269890 -3431.954191 -3430.948561 -2862.260431 -1821.137631
0.028800  -479.452528   944.407071  2226.572877  3169.595527  3626.044512  3512.420912
0.031200  2834.441654  1704.149190   317.176803 -1085.745114 -2276.236365 -3080.239878
0.033600 -3387.425891 -3167.753565 -2466.277041 -1396.926448  -145.015621  1072.603446
0.036000  2045.022899  2609.003647  2687.819052  2284.108969  1470.546352   379.562060
0.038400  -812.652708 -1901.859522 -2686.112897 -3010.875111 -2803.455397 -2095.098717
0.040800 -1010.195540   267.028974  1525.930562  2563.750372  3195.900196  3300.260596
0.043200  2841.668087  1879.811994   584.502374  -821.948809 -2111.068767 -3089.620057
0.045600 -3613.858527 -3603.918518 -3064.436651 -2070.183593  -782.942871   583.321599
0.048000  1803.795420  2680.528781  3094.991714  3001.352039  2424.589100  1458.406085
0.050400   260.363337  -972.262217 -2018.583218 -2691.429795 -2876.270056 -2553.105335
0.052800 -1793.560561  -733.078126   451.887141  1558.587854  2393.051697  2797.086632
0.055200  2681.176647  2055.454408  1035.337032  -199.905746 -1436.240631 -2478.975714
0.057600 -3159.607162 -3358.603170 -3028.070924 -2200.896196 -1009.548839   350.906494
0.060000  1650.270569  2686.522046  3307.591459  3422.805936  3020.149570  2154.098148
0.062400   956.170142  -379.266415 -1630.262731 -2587.880695 -3096.111139 -3090.489087
0.064800 -2596.240750 -1699.572667  -552.067580   660.825055  1733.477906  2475.928931
0.067200  2753.013816  2521.482978  1840.449221   845.950356  -290.253459 -1377.048536
0.069600 -2233.008643 -2707.993142 -2699.276335 -2194.127277 -1272.394773   -91.988433
0.072000  1136.806533  2213.888507  2963.310821  3265.039781  3066.790745  2375.336079
0.074400  1291.174229   -14.675754 -1320.344724 -2405.958888 -3103.205069 -3308.980073
0.076800 -3003.001291 -2237.683634 -1124.444229   163.245640  1413.232726  2418.485971
0.079200  3012.677960  3103.969852  2703.425121  1896.981899   823.800040  -340.147419
0.081600 -1403.254972 -2189.576192 -2552.432424 -2428.086634 -1848.106726  -919.605794
0.084000   180.775210  1260.520291  2148.082961  2690.914357  2787.007156  2406.700151
0.086400  1593.450447   482.523161  -729.516440 -1833.966563 -2642.729153 -3025.192233
0.088800 -2921.178596 -2337.757240 -1352.879002  -118.803370  1166.816434  2285.821574
0.091200  3052.591119  3345.851733  3135.259234  2467.293026  1448.962865   240.245449
0.093600  -974.285076 -2000.920480 -2668.204488 -2866.887406 -2574.409246 -1861.329210
0.096000  -861.246741   254.703326  1308.966976  2132.315290  2580.120918  2567.363011
0.098400  2089.831609  1237.678682   171.369651  -911.956095 -1824.969093 -2417.579405
0.100800 -2591.496690 -2308.133755 -1600.115139  -574.061377   592.817970  1697.198276
0.103200  2544.823979  2991.121542  2975.085335  2497.043153  1622.244494   481.975544
0.105600  -752.750398 -1882.324513 -2719.112118 -3117.439275 -3023.451332 -2464.710709
0.108000 -1539.472214  -397.945706   784.723723  1823.483030  2547.439776  2834.812765
0.110400  2639.887975  2009.245513  1064.442520   -19.626594 -1061.204005 -1895.409554
0.112800 -2390.439706 -2461.159028 -2092.716612 -1343.090878  -349.116698   701.471923
0.115200  1620.308264  2254.624560  2498.831646  2310.381811  1711.326110   786.188159
0.117600  -324.712235 -1431.098421 -2332.225056 -2870.764387 -2956.400441 -2577.301015
0.120000 -1796.221503  -731.573553   456.229811  1579.032861  2452.075130  2921.771937
0.122400  2915.015062  2439.797354  1588.160378   509.318365  -620.688666 -1638.027600
0.124800 -2385.857492 -2745.839270 -2660.064954 -2143.353035 -1297.588705  -280.505021
0.127200   737.500232  1586.087904  2132.570781  2289.914026  2028.838225  1383.383608
0.129600   460.291270  -571.573203 -1523.939737 -2219.168937 -2534.794474 -2423.778247
0.132000 -1900.671300 -1046.700095     3.843162  1081.636942  1996.200793  2584.098976
0.134400  2740.593460  2442.200386  1745.949911   768.013400  -340.473516 -1417.264935
0.136800 -2294.643798 -2831.621509 -2931.018417 -2579.590921 -1838.289263  -838.619708
0.139200   250.624629  1261.275022  2045.624385  2481.564028  2496.113721  2087.440386
0.141600  1324.678663   348.849753  -660.252506 -1529.458996 -2112.225004 -2319.526814
0.144000 -2122.093141 -1554.117797  -705.527877   276.418026  1216.995864  1940.922548
0.146400  2310.946561  2273.344095  1836.423526  1072.045167   105.136513  -915.272430
0.148800 -1822.198518 -2455.569427 -2701.855585 -2507.737227 -1913.321181 -1015.459226
0.151200    42.400794  1094.491425  1986.168929  2577.804430  2769.206504  2526.596015
0.153600  1885.152354   960.725126   -88.505756 -1085.663980 -1880.104600 -2352.888333
0.156000 -2437.410380 -2118.098104 -1445.613880  -540.770391   436.839158  1313.900918
0.158400  1932.765374  2198.030501  2077.718962  1595.286973   834.527095   -79.916187
0.160800  -995.587498 -1738.038387 -2169.009263 -2209.540600 -1849.396492 -1158.489525
0.163200  -252.304735   723.845572  1619.300410  2283.343319  2597.869890  2502.772036
0.165600  2006.336838  1194.129947   198.843433  -814.079626 -1695.542502 -2313.131398
0.168000 -2573.547515 -2430.549113 -1896.287863 -1057.995573   -58.244778   926.107349
0.170400  1739.880022  2260.794212  2411.082188  2175.056006  1592.851440   760.557389
0.172800  -176.114593 -1046.975577 -1697.346188 -2011.315657 -1947.852428 -1531.341125
0.175200  -837.425064    15.605644   888.243596  1625.826639  2096.354111  2209.399987
0.177600  1936.329293  1330.514993   497.538924  -424.849040 -1292.485581 -1973.594651
0.180000 -2348.220764 -2346.409806 -1958.252170 -1238.980029  -307.574362   679.389370
0.182400  1565.114207  2212.705771  2530.098906  2466.391164  2024.012584  1270.437623
0.184800   331.499927  -633.152760 -1457.436996 -2010.931677 -2211.915728 -2041.573890
0.187200 -1535.947698  -784.340361    86.976710   931.685314  1593.111467  1954.106435
0.189600  1957.367205  1611.638961   988.078222   198.515228  -627.971857 -1356.908344
0.192000 -1860.826772 -2043.548611 -1865.499630 -1350.215932  -584.766417   295.390763
0.194400  1146.109988  1833.300997  2248.759462  2318.857817  2018.270449  1386.142998
0.196800   520.700106  -433.984602 -1317.690218 -1991.372735 -2353.098001 -2350.791387
0.199200 -1991.494362 -1327.918449  -464.384789   455.755441  1275.103890  1853.508016
0.201600  2102.437603  1993.237818  1560.846677   882.900669    72.922498  -735.470495
0.204000 -1402.792705 -1809.200830 -1885.522518 -1619.131338 -1069.687172  -336.604540
0.206400   451.190293  1162.718822  1684.277775  1918.853507  1817.898193  1385.351816
0.208800   690.450196  -147.120239  -984.286047 -1682.544323 -2131.482740 -2258.516482
0.211200 -2038.175209 -1496.422624  -707.497816   197.841247  1066.141887  1755.569602
